[Name]
Series 1 at /LINE:Line 1

[Data]
X [ m ],Velocity [ m s^-1 ]
0.00000000e+00, 1.99999995e-04
3.40340339e-04, 1.99971037e-04
6.80680678e-04, 1.99942093e-04
1.02102105e-03, 1.99913164e-04
1.36136136e-03, 1.99884176e-04
1.70170167e-03, 1.99855247e-04
2.04204209e-03, 1.99826303e-04
2.38238252e-03, 1.99797330e-04
2.72272294e-03, 1.99768387e-04
3.06306337e-03, 1.99739443e-04
3.40340380e-03, 1.99710514e-04
3.74374422e-03, 1.99681555e-04
4.08408465e-03, 1.99652597e-04
4.42442484e-03, 1.99623682e-04
4.76476504e-03, 1.99594724e-04
5.10510523e-03, 1.99565766e-04
5.44544542e-03, 1.99536822e-04
5.78578562e-03, 1.99507878e-04
6.12612581e-03, 1.99478920e-04
6.46646600e-03, 1.99449962e-04
6.80680620e-03, 1.99381655e-04
7.14714639e-03, 1.99311427e-04
7.48748658e-03, 1.99241214e-04
7.82782678e-03, 1.99171016e-04
8.16816743e-03, 1.99100818e-04
8.50850809e-03, 1.99030590e-04
8.84884875e-03, 1.98960406e-04
9.18918941e-03, 1.98890251e-04
9.52953007e-03, 1.98820053e-04
9.86987073e-03, 1.98749840e-04
1.02102114e-02, 1.98679685e-04
1.05505520e-02, 1.98613066e-04
1.08908927e-02, 1.98547757e-04
1.12312334e-02, 1.98482463e-04
1.15715740e-02, 1.98417154e-04
1.19119147e-02, 1.98351830e-04
1.22522553e-02, 1.98286536e-04
1.25925960e-02, 1.98221198e-04
1.29329367e-02, 1.98155903e-04
1.32732773e-02, 1.98090580e-04
1.36136180e-02, 1.97992718e-04
1.39539586e-02, 1.97873349e-04
1.42942993e-02, 1.97753980e-04
1.46346400e-02, 1.97634596e-04
1.49749806e-02, 1.97515212e-04
1.53153213e-02, 1.97395828e-04
1.56556610e-02, 1.97276488e-04
1.59960017e-02, 1.97157147e-04
1.63363423e-02, 1.97037778e-04
1.66766830e-02, 1.96912166e-04
1.70170236e-02, 1.96784211e-04
1.73573643e-02, 1.96656285e-04
1.76977050e-02, 1.96528359e-04
1.80380456e-02, 1.96400390e-04
1.83783863e-02, 1.96272478e-04
1.87187269e-02, 1.96144523e-04
1.90590676e-02, 1.96016626e-04
1.93994083e-02, 1.95888671e-04
1.97397489e-02, 1.95760746e-04
2.00800896e-02, 1.95632863e-04
2.04204302e-02, 1.95479675e-04
2.07607709e-02, 1.95262648e-04
2.11011115e-02, 1.95045635e-04
2.14414522e-02, 1.94828608e-04
2.17817929e-02, 1.94611595e-04
2.21221335e-02, 1.94394554e-04
2.24624742e-02, 1.94177541e-04
2.28028148e-02, 1.93960543e-04
2.31431555e-02, 1.93743515e-04
2.34834962e-02, 1.93526503e-04
2.38238368e-02, 1.93309475e-04
2.41641775e-02, 1.93092492e-04
2.45045181e-02, 1.92881926e-04
2.48448588e-02, 1.92676613e-04
2.51851995e-02, 1.92471343e-04
2.55255401e-02, 1.92266089e-04
2.58658808e-02, 1.92060819e-04
2.62062214e-02, 1.91855579e-04
2.65465621e-02, 1.91635758e-04
2.68869027e-02, 1.91321233e-04
2.72272434e-02, 1.91006679e-04
2.75675841e-02, 1.90692212e-04
2.79079247e-02, 1.90377716e-04
2.82482654e-02, 1.90063263e-04
2.85886060e-02, 1.89758706e-04
2.89289467e-02, 1.89459504e-04
2.92692874e-02, 1.89160346e-04
2.96096280e-02, 1.88861202e-04
2.99499687e-02, 1.88562015e-04
3.02903093e-02, 1.88262857e-04
3.06306500e-02, 1.87963713e-04
3.09709907e-02, 1.87664555e-04
3.13113295e-02, 1.87365426e-04
3.16516683e-02, 1.87066282e-04
3.19920070e-02, 1.86767138e-04
3.23323458e-02, 1.86467994e-04
3.26726846e-02, 1.86073070e-04
3.30130234e-02, 1.85611396e-04
3.33533622e-02, 1.85149780e-04
3.36937010e-02, 1.84688135e-04
3.40340398e-02, 1.84226519e-04
3.43743786e-02, 1.83764903e-04
3.47147174e-02, 1.83303287e-04
3.50550562e-02, 1.82841672e-04
3.53953950e-02, 1.82380070e-04
3.57357338e-02, 1.81918454e-04
3.60760726e-02, 1.81456853e-04
3.64164114e-02, 1.81005438e-04
3.67567502e-02, 1.80582982e-04
3.70970890e-02, 1.80160554e-04
3.74374278e-02, 1.79585448e-04
3.77777666e-02, 1.78908973e-04
3.81181054e-02, 1.78232513e-04
3.84584442e-02, 1.77556067e-04
3.87987830e-02, 1.76946720e-04
3.91391218e-02, 1.76345740e-04
3.94794606e-02, 1.75744761e-04
3.98197994e-02, 1.75143738e-04
4.01601382e-02, 1.74542787e-04
4.05004770e-02, 1.73941837e-04
4.08408158e-02, 1.73340857e-04
4.11811545e-02, 1.72739848e-04
4.15214933e-02, 1.71996100e-04
4.18618321e-02, 1.71188614e-04
4.22021709e-02, 1.70381172e-04
4.25425097e-02, 1.69573832e-04
4.28828485e-02, 1.68766550e-04
4.32231873e-02, 1.67959355e-04
4.35635261e-02, 1.67246835e-04
4.39038649e-02, 1.66540602e-04
4.42442037e-02, 1.65834441e-04
4.45845425e-02, 1.65128280e-04
4.49248813e-02, 1.64422192e-04
4.52652201e-02, 1.63716104e-04
4.56055589e-02, 1.63010031e-04
4.59458977e-02, 1.62304030e-04
4.62862365e-02, 1.61340577e-04
4.66265753e-02, 1.60224386e-04
4.69669141e-02, 1.59108255e-04
4.73072529e-02, 1.57992181e-04
4.76475917e-02, 1.56876165e-04
4.79879305e-02, 1.55760252e-04
4.83282693e-02, 1.54644367e-04
4.86686081e-02, 1.53528541e-04
4.90089469e-02, 1.52412817e-04
4.93492857e-02, 1.51332919e-04
4.96896245e-02, 1.50266264e-04
5.00299633e-02, 1.49199739e-04
5.03703021e-02, 1.48133346e-04
5.07106408e-02, 1.46931736e-04
5.10509796e-02, 1.45578873e-04
5.13913184e-02, 1.44226069e-04
5.17316572e-02, 1.42873352e-04
5.20719960e-02, 1.41520664e-04
5.24123348e-02, 1.40168035e-04
5.27526736e-02, 1.38815478e-04
5.30930124e-02, 1.37545518e-04
5.34333512e-02, 1.36303235e-04
5.37736900e-02, 1.35060953e-04
5.41140288e-02, 1.33818699e-04
5.44543676e-02, 1.32576461e-04
5.47947064e-02, 1.31334222e-04
5.51350452e-02, 1.30092027e-04
5.54753840e-02, 1.28849846e-04
5.58157228e-02, 1.27196792e-04
5.61560616e-02, 1.25535618e-04
5.64964004e-02, 1.23874677e-04
5.68367392e-02, 1.22134661e-04
5.71770780e-02, 1.20286837e-04
5.75174168e-02, 1.18439151e-04
5.78577556e-02, 1.16591604e-04
5.81980944e-02, 1.14744253e-04
5.85384332e-02, 1.12897069e-04
5.88787720e-02, 1.11050067e-04
5.92191108e-02, 1.09203254e-04
5.95594496e-02, 1.07356638e-04
5.98997883e-02, 1.05510218e-04
6.02401271e-02, 1.03441525e-04
6.05804659e-02, 1.01320460e-04
6.09208047e-02, 9.92002824e-05
6.12611435e-02, 9.70891779e-05
6.16014823e-02, 9.49814057e-05
6.19418211e-02, 9.28736408e-05
6.22821599e-02, 9.07658759e-05
6.26225024e-02, 8.86580674e-05
6.29628450e-02, 8.65502734e-05
6.33031875e-02, 8.44424794e-05
6.36435300e-02, 8.23434020e-05
6.39838725e-02, 8.02742506e-05
6.43242151e-02, 7.82052375e-05
6.46645576e-02, 7.60246767e-05
6.50049001e-02, 7.36699949e-05
6.53452426e-02, 7.13154441e-05
6.56855851e-02, 6.90297093e-05
6.60259277e-02, 6.68761641e-05
6.63662702e-02, 6.47227353e-05
6.67066127e-02, 6.25693865e-05
6.70469552e-02, 6.04161760e-05
6.73872977e-02, 5.82630746e-05
6.77276403e-02, 5.61101224e-05
6.80679828e-02, 5.38231980e-05
6.84083253e-02, 5.15177126e-05
6.87486678e-02, 4.92122745e-05
6.90890104e-02, 4.69068509e-05
6.94293529e-02, 4.46014274e-05
6.97696954e-02, 4.23034289e-05
7.01100379e-02, 4.00056088e-05
7.04503804e-02, 3.77830147e-05
7.07907230e-02, 3.56155615e-05
7.11310655e-02, 3.34487559e-05
7.14714080e-02, 3.12827506e-05
7.18117505e-02, 2.91277775e-05
7.21520931e-02, 2.70371438e-05
7.24924356e-02, 2.50525027e-05
7.28327781e-02, 2.30997539e-05
7.31731206e-02, 2.11476781e-05
7.35134631e-02, 1.92319985e-05
7.38538057e-02, 1.74936868e-05
7.41941482e-02, 1.57673130e-05
7.45344907e-02, 1.41314567e-05
7.48748332e-02, 1.25241640e-05
7.52151757e-02, 1.10677438e-05
7.55555183e-02, 9.62971899e-06
7.58958608e-02, 8.23748906e-06
7.62362033e-02, 6.90927754e-06
7.65765458e-02, 5.78387107e-06
7.69168884e-02, 4.75478191e-06
7.72572309e-02, 3.89798697e-06
7.75975734e-02, 3.02619924e-06
7.79379159e-02, 2.16549097e-06
7.82782584e-02, 1.54796112e-06
7.86186010e-02, 1.01682258e-06
7.89589435e-02, 5.83705742e-07
7.92992860e-02, 2.75599859e-07
7.96396285e-02, 8.72422916e-08
7.99799711e-02, 6.46374243e-09
8.03203136e-02, 0.00000000e+00
8.06606561e-02, 0.00000000e+00
undef, undef
8.95095617e-02, 0.00000000e+00
8.98499042e-02, 0.00000000e+00
9.01902467e-02, 1.53062061e-08
9.05305892e-02, 7.25608587e-08
9.08709317e-02, 1.77028284e-07
9.12112743e-02, 3.31107600e-07
9.15516168e-02, 5.19060620e-07
9.18919593e-02, 7.46948444e-07
9.22323018e-02, 9.78412459e-07
9.25726444e-02, 1.27872238e-06
9.29129869e-02, 1.58086982e-06
9.32533294e-02, 1.93002643e-06
9.35936719e-02, 2.29848365e-06
9.39340144e-02, 2.67724158e-06
9.42743570e-02, 3.04911941e-06
9.46146995e-02, 3.42100611e-06
9.49550420e-02, 3.79334347e-06
9.52953845e-02, 4.16208331e-06
9.56357270e-02, 4.53088296e-06
9.59760696e-02, 4.90203774e-06
9.63164121e-02, 5.27659495e-06
9.66567546e-02, 5.64034553e-06
9.69970971e-02, 6.00411340e-06
9.73374397e-02, 6.36788764e-06
9.76777822e-02, 6.73166778e-06
9.80181247e-02, 7.02834495e-06
9.83584672e-02, 7.30474994e-06
9.86988097e-02, 7.58115993e-06
9.90391523e-02, 7.85757584e-06
9.93794948e-02, 8.13399492e-06
9.97198373e-02, 8.40117991e-06
1.00060180e-01, 8.55011695e-06
1.00400522e-01, 8.67296330e-06
1.00740865e-01, 8.79583240e-06
1.01081207e-01, 8.91872332e-06
1.01421550e-01, 9.02293141e-06
1.01761892e-01, 9.09340542e-06
1.02102235e-01, 9.16529189e-06
1.02442577e-01, 9.12812902e-06
1.02782920e-01, 9.04023818e-06
1.03123263e-01, 8.95249923e-06
1.03463605e-01, 8.86491125e-06
1.03803948e-01, 8.77748153e-06
1.04144290e-01, 8.68998359e-06
1.04484633e-01, 8.57026589e-06
1.04824975e-01, 8.45028626e-06
1.05165318e-01, 8.23014761e-06
1.05505660e-01, 7.90682134e-06
1.05846003e-01, 7.49391847e-06
1.06186345e-01, 7.08139305e-06
1.06526688e-01, 6.66930919e-06
1.06867030e-01, 6.25776102e-06
1.07207373e-01, 5.84685949e-06
1.07547715e-01, 5.43675105e-06
1.07888058e-01, 5.02762714e-06
1.08228400e-01, 4.61975424e-06
1.08568743e-01, 4.17396859e-06
1.08909085e-01, 3.65647156e-06
1.09249428e-01, 3.14774729e-06
1.09589770e-01, 2.65284098e-06
1.09930113e-01, 2.26204725e-06
1.10270455e-01, 1.88931403e-06
1.10610798e-01, 1.51753625e-06
1.10951141e-01, 1.14763918e-06
1.11291483e-01, 7.82296922e-07
1.11631826e-01, 4.33184852e-07
1.11972168e-01, 2.05641058e-07
1.12312511e-01, 6.56120960e-07
1.12652853e-01, 1.25588338e-06
1.12993196e-01, 1.86615262e-06
1.13333538e-01, 2.59482499e-06
1.13673881e-01, 3.39266580e-06
1.14014223e-01, 4.19119533e-06
1.14354566e-01, 4.99008047e-06
1.14694908e-01, 5.78917479e-06
1.15035251e-01, 6.58840145e-06
1.15375593e-01, 7.38772042e-06
1.15715936e-01, 8.18710214e-06
1.16056278e-01, 8.98653070e-06
1.16396621e-01, 9.78599928e-06
1.16736963e-01, 1.05966055e-05
1.17077306e-01, 1.14448676e-05
1.17417648e-01, 1.23408190e-05
1.17757991e-01, 1.32371270e-05
1.18098333e-01, 1.41337214e-05
1.18438676e-01, 1.50305559e-05
1.18779019e-01, 1.59275860e-05
1.19119361e-01, 1.68247861e-05
1.19459704e-01, 1.77221245e-05
1.19800046e-01, 1.86195866e-05
1.20140389e-01, 1.95171560e-05
1.20480731e-01, 2.04148200e-05
1.20821074e-01, 2.13125604e-05
1.21161416e-01, 2.22103681e-05
1.21501759e-01, 2.31082449e-05
1.21842101e-01, 2.40061654e-05
1.22182444e-01, 2.49041386e-05
1.22522786e-01, 2.57997144e-05
1.22863129e-01, 2.66908191e-05
1.23203471e-01, 2.76338578e-05
1.23543814e-01, 2.85926562e-05
1.23884156e-01, 2.95514947e-05
1.24224499e-01, 3.05103731e-05
1.24564841e-01, 3.14692807e-05
1.24905184e-01, 3.24282155e-05
1.25245526e-01, 3.33871831e-05
1.25585869e-01, 3.44234504e-05
1.25926211e-01, 3.55193843e-05
1.26266554e-01, 3.66153363e-05
1.26606897e-01, 3.77112920e-05
1.26947239e-01, 3.88072694e-05
1.27287582e-01, 3.99032506e-05
1.27627924e-01, 4.09992463e-05
1.27968267e-01, 4.20952492e-05
1.28308609e-01, 4.31912631e-05
1.28648952e-01, 4.42872843e-05
1.28989294e-01, 4.53832945e-05
1.29329637e-01, 4.64793229e-05
1.29669979e-01, 4.75568486e-05
1.30010322e-01, 4.85654564e-05
1.30350664e-01, 4.95740605e-05
1.30691007e-01, 5.06212091e-05
1.31031349e-01, 5.16759428e-05
1.31371692e-01, 5.27306875e-05
1.31712034e-01, 5.37854430e-05
1.32052377e-01, 5.48402168e-05
1.32392719e-01, 5.58950123e-05
1.32733062e-01, 5.69498116e-05
1.33073404e-01, 5.80046180e-05
1.33413747e-01, 5.90594391e-05
1.33754089e-01, 6.01142783e-05
1.34094432e-01, 6.11691139e-05
1.34434775e-01, 6.22239750e-05
1.34775117e-01, 6.32788287e-05
1.35115460e-01, 6.43336971e-05
1.35455802e-01, 6.53885800e-05
1.35796145e-01, 6.64434556e-05
1.36136487e-01, 6.74983530e-05
1.36476830e-01, 6.85532577e-05
1.36817172e-01, 6.96081552e-05
1.37157515e-01, 7.06630744e-05
1.37497857e-01, 7.17179937e-05
1.37838200e-01, 7.27729275e-05
1.38178542e-01, 7.38278613e-05
1.38518885e-01, 7.49125247e-05
1.38859227e-01, 7.60006587e-05
1.39199570e-01, 7.69715989e-05
1.39539912e-01, 7.77472087e-05
1.39880255e-01, 7.85228331e-05
1.40220597e-01, 7.94037551e-05
1.40560940e-01, 8.03860530e-05
1.40901282e-01, 8.13683437e-05
1.41241625e-01, 8.23506562e-05
1.41581967e-01, 8.33329832e-05
1.41922310e-01, 8.43153102e-05
1.42262653e-01, 8.52976591e-05
1.42602995e-01, 8.62800152e-05
1.42943338e-01, 8.72623714e-05
1.43283680e-01, 8.82447712e-05
1.43624023e-01, 8.92271564e-05
1.43964365e-01, 9.02095489e-05
1.44304708e-01, 9.11919342e-05
1.44645050e-01, 9.21743558e-05
1.44985393e-01, 9.31567847e-05
1.45325735e-01, 9.41391991e-05
1.45666078e-01, 9.51216498e-05
1.46006420e-01, 9.61040860e-05
1.46346763e-01, 9.69050161e-05
1.46687105e-01, 9.76856027e-05
1.47027448e-01, 9.84662038e-05
1.47367790e-01, 9.92468122e-05
1.47708133e-01, 1.00027413e-04
1.48048475e-01, 1.00808036e-04
1.48388818e-01, 1.01760619e-04
1.48729160e-01, 1.02716847e-04
1.49069503e-01, 1.03673105e-04
1.49409845e-01, 1.04629413e-04
1.49750188e-01, 1.05585736e-04
1.50090531e-01, 1.06542080e-04
1.50430873e-01, 1.07498432e-04
1.50771216e-01, 1.08454828e-04
1.51111558e-01, 1.09411230e-04
1.51451901e-01, 1.10367677e-04
1.51792243e-01, 1.11220157e-04
1.52132586e-01, 1.12071924e-04
1.52472928e-01, 1.12923677e-04
1.52813271e-01, 1.13775437e-04
1.53153613e-01, 1.14627226e-04
1.53493956e-01, 1.15479008e-04
1.53834298e-01, 1.16330797e-04
1.54174641e-01, 1.17182593e-04
1.54514983e-01, 1.18034412e-04
1.54855326e-01, 1.18886252e-04
1.55195668e-01, 1.19820179e-04
1.55536011e-01, 1.20803175e-04
1.55876353e-01, 1.21786194e-04
1.56216696e-01, 1.22756755e-04
1.56557038e-01, 1.23642501e-04
1.56897381e-01, 1.24528247e-04
1.57237723e-01, 1.25414052e-04
1.57578066e-01, 1.26299841e-04
1.57918409e-01, 1.27185645e-04
1.58258751e-01, 1.28071435e-04
1.58599094e-01, 1.28957239e-04
1.58939436e-01, 1.29843073e-04
1.59279779e-01, 1.30728906e-04
1.59620121e-01, 1.31614754e-04
1.59960464e-01, 1.32500616e-04
1.60300806e-01, 1.33511348e-04
1.60641149e-01, 1.34543501e-04
1.60981491e-01, 1.35575654e-04
1.61321834e-01, 1.36567294e-04
1.61662176e-01, 1.37270690e-04
1.62002519e-01, 1.38013347e-04
1.62342861e-01, 1.38755990e-04
1.62683204e-01, 1.39498676e-04
1.63023546e-01, 1.40241362e-04
1.63363889e-01, 1.40984019e-04
1.63704231e-01, 1.41726705e-04
1.64044574e-01, 1.42469391e-04
1.64384916e-01, 1.43212063e-04
1.64725259e-01, 1.43954763e-04
1.65065601e-01, 1.44697420e-04
1.65405944e-01, 1.45440106e-04
1.65746287e-01, 1.46182807e-04
1.66086629e-01, 1.46925478e-04
1.66426972e-01, 1.47668194e-04
1.66767314e-01, 1.48410894e-04
1.67107657e-01, 1.49153595e-04
1.67447999e-01, 1.49896281e-04
1.67788342e-01, 1.50639011e-04
1.68128684e-01, 1.51381711e-04
1.68469027e-01, 1.52124441e-04
1.68809369e-01, 1.52848253e-04
1.69149712e-01, 1.53590954e-04
1.69490054e-01, 1.54333669e-04
1.69830397e-01, 1.55097645e-04
1.70170739e-01, 1.55896647e-04
1.70511082e-01, 1.56695693e-04
1.70851424e-01, 1.57494738e-04
1.71191767e-01, 1.58293813e-04
1.71532109e-01, 1.59092917e-04
1.71872452e-01, 1.59892064e-04
1.72212794e-01, 1.60691183e-04
1.72553137e-01, 1.61490345e-04
1.72893479e-01, 1.62289522e-04
1.73233822e-01, 1.63088727e-04
1.73574165e-01, 1.63887933e-04
1.73914507e-01, 1.64687182e-04
1.74254850e-01, 1.65486432e-04
1.74595192e-01, 1.66279613e-04
1.74935535e-01, 1.67056540e-04
1.75275877e-01, 1.67790189e-04
1.75616220e-01, 1.68466591e-04
1.75956562e-01, 1.69142964e-04
1.76296905e-01, 1.69819337e-04
1.76637247e-01, 1.70495725e-04
1.76977590e-01, 1.71172098e-04
1.77317932e-01, 1.71848471e-04
1.77658275e-01, 1.72524858e-04
1.77998617e-01, 1.73201261e-04
1.78338960e-01, 1.73877677e-04
1.78679302e-01, 1.74554065e-04
1.79019645e-01, 1.75230423e-04
1.79359987e-01, 1.75906855e-04
1.79700330e-01, 1.76583257e-04
1.80040672e-01, 1.77259659e-04
1.80381015e-01, 1.77936075e-04
1.80721357e-01, 1.78612463e-04
1.81061700e-01, 1.79288880e-04
1.81402043e-01, 1.79970521e-04
1.81742385e-01, 1.80659830e-04
1.82082728e-01, 1.81352967e-04
1.82423070e-01, 1.82067306e-04
1.82763413e-01, 1.82781718e-04
1.83103755e-01, 1.83496071e-04
1.83444098e-01, 1.84210439e-04
1.83784440e-01, 1.84924778e-04
1.84124783e-01, 1.85639146e-04
1.84465125e-01, 1.86353514e-04
1.84805468e-01, 1.87067868e-04
1.85145810e-01, 1.87782251e-04
1.85486153e-01, 1.88496619e-04
1.85826495e-01, 1.89211001e-04
1.86166838e-01, 1.89925369e-04
1.86507180e-01, 1.90639737e-04
1.86847523e-01, 1.91354105e-04
1.87187865e-01, 1.92068488e-04
1.87528208e-01, 1.92782871e-04
1.87868550e-01, 1.93463289e-04
1.88208893e-01, 1.93966465e-04
1.88549235e-01, 1.94469700e-04
1.88889578e-01, 1.94972919e-04
1.89229921e-01, 1.95476183e-04
1.89570263e-01, 1.95981280e-04
1.89910606e-01, 1.96489491e-04
1.90250948e-01, 1.96997673e-04
1.90591291e-01, 1.97505884e-04
1.90931633e-01, 1.98014066e-04
1.91271976e-01, 1.98522277e-04
1.91612318e-01, 1.99030474e-04
1.91952661e-01, 1.99538685e-04
1.92293003e-01, 2.00046896e-04
1.92633346e-01, 2.00555092e-04
1.92973688e-01, 2.01063303e-04
1.93314031e-01, 2.01571544e-04
1.93654373e-01, 2.02079755e-04
1.93994716e-01, 2.02680429e-04
1.94335058e-01, 2.03292235e-04
1.94675401e-01, 2.03904085e-04
1.95015743e-01, 2.04380471e-04
1.95356086e-01, 2.04880504e-04
1.95696428e-01, 2.05403005e-04
1.96036771e-01, 2.05925506e-04
1.96377113e-01, 2.06447992e-04
1.96717456e-01, 2.06970493e-04
1.97057799e-01, 2.07493009e-04
1.97398141e-01, 2.08015510e-04
1.97738484e-01, 2.08538026e-04
1.98078826e-01, 2.09059013e-04
1.98419169e-01, 2.09583042e-04
1.98759511e-01, 2.10105529e-04
1.99099854e-01, 2.10628030e-04
1.99440196e-01, 2.11150546e-04
1.99780539e-01, 2.11673076e-04
2.00120881e-01, 2.12180239e-04
2.00461224e-01, 2.12643790e-04
2.00801566e-01, 2.13107371e-04
2.01141909e-01, 2.13570922e-04
2.01482251e-01, 2.14034502e-04
2.01822594e-01, 2.14498083e-04
2.02162936e-01, 2.14961619e-04
2.02503279e-01, 2.15425214e-04
2.02843621e-01, 2.15891880e-04
2.03183964e-01, 2.16371147e-04
2.03524306e-01, 2.16850502e-04
2.03864649e-01, 2.17329783e-04
2.04204991e-01, 2.17809138e-04
2.04545334e-01, 2.18288464e-04
2.04885677e-01, 2.18767789e-04
2.05226019e-01, 2.19247100e-04
2.05566362e-01, 2.19726455e-04
2.05906704e-01, 2.20205780e-04
2.06247047e-01, 2.20685135e-04
2.06587389e-01, 2.21108203e-04
2.06927732e-01, 2.21480790e-04
2.07268074e-01, 2.21853421e-04
2.07608417e-01, 2.22226037e-04
2.07948759e-01, 2.22598683e-04
2.08289102e-01, 2.22971343e-04
2.08629444e-01, 2.23343915e-04
2.08969787e-01, 2.23716590e-04
2.09310129e-01, 2.24089221e-04
2.09650472e-01, 2.24461866e-04
2.09990814e-01, 2.24834526e-04
2.10331157e-01, 2.25207201e-04
2.10671499e-01, 2.25579861e-04
2.11011842e-01, 2.25967597e-04
2.11352184e-01, 2.26410819e-04
2.11692527e-01, 2.26854070e-04
2.12032869e-01, 2.27297278e-04
2.12373212e-01, 2.27711731e-04
2.12713555e-01, 2.28067380e-04
2.13053897e-01, 2.28423043e-04
2.13394240e-01, 2.28778707e-04
2.13734582e-01, 2.29134326e-04
2.14074925e-01, 2.29489990e-04
2.14415267e-01, 2.29845697e-04
2.14755610e-01, 2.30201316e-04
2.15095952e-01, 2.30562553e-04
2.15436295e-01, 2.30912628e-04
2.15776637e-01, 2.31268306e-04
2.16116980e-01, 2.31641694e-04
2.16457322e-01, 2.32044811e-04
2.16797665e-01, 2.32447943e-04
2.17138007e-01, 2.32851075e-04
2.17478350e-01, 2.33254206e-04
2.17818692e-01, 2.33657265e-04
2.18159035e-01, 2.34059669e-04
2.18499377e-01, 2.34456835e-04
2.18839720e-01, 2.34809908e-04
2.19180062e-01, 2.35146115e-04
2.19520405e-01, 2.35482366e-04
2.19860747e-01, 2.35818618e-04
